x,y,z,yaw,velocity,change_flag,steering_flag,accel_flag,stop_flag,event_flag
100.6936,-90.6343,1.4069,-2.6418,5,0,0,0,0,0
99.8113,-91.1049,1.3945,-2.6529,5,0,0,0,0,0
98.9281,-91.5739,1.3821,-2.6536,5,0,0,0,0,0
98.0445,-92.0423,1.3696,-2.6526,5,0,0,0,0,0
97.1624,-92.5132,1.3594,-2.6459,5,0,0,0,0,0
96.2976,-93.0153,1.3512,-2.598,5,0,0,0,0,0
95.4381,-93.5264,1.3407,-2.6137,5,0,0,0,0,0
94.5662,-94.0159,1.3332,-2.6511,5,0,0,0,0,0
93.6757,-94.4708,1.3284,-2.6877,5,0,0,0,0,0
92.7683,-94.8913,1.3267,-2.7152,5,0,0,0,0,0
91.8518,-95.2913,1.3252,-2.7412,5,0,0,0,0,0
90.9268,-95.6712,1.315,-2.7601,5,0,0,0,0,0
89.9953,-96.0347,1.3048,-2.7789,5,0,0,0,0,0
89.057,-96.3808,1.2979,-2.7888,5,0,0,0,0,0
88.1173,-96.7227,1.2886,-2.7878,5,0,0,0,0,0
87.1809,-97.0738,1.284,-2.7793,5,0,0,0,0,0
86.2472,-97.4318,1.2711,-2.7761,5,0,0,0,0,0
85.315,-97.7936,1.2582,-2.7672,5,0,0,0,0,0
84.382,-98.1534,1.2408,-2.7904,5,0,0,0,0,0
83.435,-98.474,1.2368,-2.8461,5,0,0,0,0,0
82.4763,-98.7587,1.241,-2.8492,5,0,0,0,0,0
81.518,-99.0448,1.2484,-2.8506,5,0,0,0,0,0
80.5598,-99.3309,1.256,-2.8516,5,0,0,0,0,0
79.5979,-99.6027,1.2637,-2.907,5,0,0,0,0,0
78.6258,-99.8381,1.2747,-2.8903,5,0,0,0,0,0
77.6571,-100.0863,1.2787,-2.8916,5,0,0,0,0,0
76.6886,-100.3355,1.2863,-2.8821,5,0,0,0,0,0
75.7254,-100.6038,1.2932,-2.8544,5,0,0,0,0,0
74.7689,-100.8958,1.2995,-2.8355,5,0,0,0,0,0
73.8178,-101.2046,1.2958,-2.8248,5,0,0,0,0,0
72.8688,-101.5198,1.298,-2.8237,5,0,0,0,0,0
71.9194,-101.8339,1.2914,-2.8409,5,0,0,0,0,0
70.9614,-102.1206,1.284,-2.856,5,0,0,0,0,0
70.0024,-102.4041,1.2753,-2.8454,5,0,0,0,0,0
69.0481,-102.7027,1.2673,-2.8299,5,0,0,0,0,0
68.0992,-103.0184,1.2592,-2.8131,5,0,0,0,0,0
67.1555,-103.3492,1.2518,-2.7982,5,0,0,0,0,0
66.2173,-103.6952,1.2384,-2.7785,5,0,0,0,0,0
65.2856,-104.0584,1.2209,-2.7612,5,0,0,0,0,0
64.3602,-104.4373,1.2076,-2.7432,5,0,0,0,0,0
63.4421,-104.8337,1.1928,-2.7253,5,0,0,0,0,0
62.5312,-105.2463,1.1777,-2.707,5,0,0,0,0,0
61.628,-105.6755,1.1632,-2.6889,5,0,0,0,0,0
60.7338,-106.1232,1.152,-2.6705,5,0,0,0,0,0
59.8465,-106.5842,1.1385,-2.6509,5,0,0,0,0,0
58.969,-107.0639,1.1284,-2.6352,5,0,0,0,0,0
58.1007,-107.5599,1.1273,-2.6255,5,0,0,0,0,0
57.2328,-108.0568,1.1201,-2.6202,5,0,0,0,0,0
56.3662,-108.5557,1.1141,-2.6181,5,0,0,0,0,0
55.5008,-109.0568,1.1034,-2.6172,5,0,0,0,0,0
54.6362,-109.5593,1.0911,-2.6247,5,0,0,0,0,0
53.765,-110.0502,1.0785,-2.6357,5,0,0,0,0,0
52.8858,-110.5266,1.069,-2.6437,5,0,0,0,0,0
52.0055,-111.001,1.0573,-2.6491,5,0,0,0,0,0
51.1235,-111.4722,1.0521,-2.6577,5,0,0,0,0,0
50.2362,-111.9335,1.0476,-2.6641,5,0,0,0,0,0
49.3464,-112.3898,1.0442,-2.6704,5,0,0,0,0,0
48.4541,-112.8412,1.0429,-2.6749,5,0,0,0,0,0
47.5606,-113.2904,1.0452,-2.6764,5,0,0,0,0,0
46.6664,-113.738,1.0467,-2.6778,5,0,0,0,0,0
45.7717,-114.1846,1.0495,-2.6781,5,0,0,0,0,0
44.877,-114.6314,1.0535,-2.6762,5,0,0,0,0,0
43.9844,-115.0822,1.0565,-2.6786,5,0,0,0,0,0
43.0885,-115.5264,1.0459,-2.6753,5,0,0,0,0,0
42.1968,-115.9792,1.0372,-2.6801,5,0,0,0,0,0
41.3004,-116.4225,1.0162,-2.6824,5,0,0,0,0,0
40.4023,-116.8621,1.0017,-2.6864,5,0,0,0,0,0
39.5045,-117.3025,1.0096,-2.6894,5,0,0,0,0,0
38.6028,-117.7349,0.9814,-2.6829,5,0,0,0,0,0
37.7091,-118.1837,0.9571,-2.6814,5,0,0,0,0,0
36.8139,-118.6294,0.9482,-2.6744,5,0,0,0,0,0
35.9231,-119.0839,0.9685,-2.6785,5,0,0,0,0,0
35.027,-119.5276,0.9633,-2.6793,5,0,0,0,0,0
34.1309,-119.9716,0.9572,-2.6828,5,0,0,0,0,0
33.2346,-120.415,0.9503,-2.6901,5,0,0,0,0,0
32.3347,-120.8509,0.9538,-2.7136,5,0,0,0,0,0
31.4205,-121.2555,0.9596,-2.7535,5,0,0,0,0,0
30.4867,-121.6129,0.9517,-2.8052,5,0,0,0,0,0
29.5335,-121.9153,0.9408,-2.8541,5,0,0,0,0,0
28.5675,-122.1744,0.9295,-2.8796,5,0,0,0,0,0
27.5991,-122.424,0.9319,-2.8962,5,0,0,0,0,0
26.6271,-122.6585,0.9282,-2.917,5,0,0,0,0,0
25.6507,-122.875,0.9256,-2.9247,5,0,0,0,0,0
24.6746,-123.0921,0.9258,-2.9247,5,0,0,0,0,0
23.6978,-123.3061,0.9261,-2.9271,5,0,0,0,0,0
22.7204,-123.5177,0.9264,-2.9278,5,0,0,0,0,0
21.7428,-123.7281,0.9272,-2.928,5,0,0,0,0,0
20.7659,-123.942,0.9325,-2.9227,5,0,0,0,0,0
19.7901,-124.1606,0.9299,-2.9192,5,0,0,0,0,0
18.8151,-124.3824,0.9249,-2.9304,5,0,0,0,0,0
17.836,-124.5858,0.9216,-2.943,5,0,0,0,0,0
16.8541,-124.7753,0.9195,-2.9575,5,0,0,0,0,0
15.8698,-124.9519,0.9171,-2.9743,5,0,0,0,0,0
14.8825,-125.1102,0.9147,-2.9915,5,0,0,0,0,0
13.8924,-125.2508,0.9132,-3.0099,5,0,0,0,0,0
12.8999,-125.3728,0.9123,-3.0268,5,0,0,0,0,0
11.9055,-125.4789,0.9158,-3.0429,5,0,0,0,0,0
10.9097,-125.5697,0.9157,-3.0598,5,0,0,0,0,0
9.9125,-125.6438,0.9145,-3.0844,5,0,0,0,0,0
8.9136,-125.6894,0.9143,-3.1158,5,0,0,0,0,0
7.9137,-125.6985,0.9205,3.1321,5,0,0,0,0,0
6.9142,-125.6706,0.9287,3.0954,5,0,0,0,0,0
5.9164,-125.6043,0.9374,3.0608,5,0,0,0,0,0
4.9215,-125.5029,0.9462,3.0347,5,0,0,0,0,0
3.929,-125.38,0.9573,3.0241,5,0,0,0,0,0
2.9364,-125.2583,0.9697,3.0217,5,0,0,0,0,0
1.9433,-125.1408,0.9788,3.0232,5,0,0,0,0,0
0.9503,-125.0234,0.9878,3.0247,5,0,0,0,0,0
-0.0429,-124.9071,0.995,3.0265,5,0,0,0,0,0
-1.0365,-124.7934,1.0043,3.0268,5,0,0,0,0,0
-2.0297,-124.677,1.0116,3.0279,5,0,0,0,0,0
-3.0233,-124.5645,1.0116,3.0284,5,0,0,0,0,0
-4.0171,-124.4532,1.01,3.0327,5,0,0,0,0,0
-5.0113,-124.3458,1.0081,3.0331,5,0,0,0,0,0
-6.0056,-124.2385,1.0089,3.0351,5,0,0,0,0,0
-6.9999,-124.1327,1.0112,3.0368,5,0,0,0,0,0
-7.9945,-124.0285,1.0197,3.0358,5,0,0,0,0,0
-8.9889,-123.9226,1.0277,3.0355,5,0,0,0,0,0
-9.9832,-123.8163,1.0355,3.0352,5,0,0,0,0,0
-10.9776,-123.7102,1.0438,3.035,5,0,0,0,0,0
-11.9718,-123.6031,1.0551,3.0371,5,0,0,0,0,0
-12.9665,-123.5006,1.0657,3.0355,5,0,0,0,0,0
-13.9608,-123.3939,1.0835,3.0384,5,0,0,0,0,0
-14.9556,-123.2918,1.1011,3.0417,5,0,0,0,0,0
-15.9509,-123.1946,1.1055,3.0447,5,0,0,0,0,0
-16.9464,-123.0996,1.1068,3.0465,5,0,0,0,0,0
-17.9419,-123.0052,1.1048,3.0472,5,0,0,0,0,0
-18.9375,-122.9111,1.1013,3.0472,5,0,0,0,0,0
-19.933,-122.8168,1.0984,3.047,5,0,0,0,0,0
-20.9285,-122.7223,1.0965,3.0467,5,0,0,0,0,0
